#ZVView-data-copy:   6-Oct-2017 16:32:26
#=======================================
#
#name:   ENDF/B-VIII.b4: XE-128(N,EL)XE-128-L0
#X.axis: Incident Energy
#Y.axis: Cross Section
#wdata:  2
#ldata:  3348
#data...
#            X            Y
#          MeV        barns
         1e-11      34.9924
   1.10304e-11      33.3738
   1.21669e-11      31.8354
   1.34206e-11      30.3735
   1.48034e-11      28.9845
   1.64438e-11      27.5732
   1.82652e-11      26.2385
   2.02893e-11      24.9755
   2.25366e-11      23.7818
   2.50341e-11       22.653
    2.7807e-11       21.587
   3.08885e-11      20.5799
   3.43098e-11      19.6297
   3.81119e-11      18.7329
   4.23333e-11      17.8878
   4.70246e-11      17.0912
   5.22332e-11      16.3415
   5.80216e-11       15.636
   6.44483e-11      14.9731
   7.15903e-11      14.3504
   7.95198e-11      13.7665
   8.89508e-11       13.184
   9.95003e-11      12.6414
   1.11301e-10      12.1366
   1.24501e-10      11.6678
   1.39267e-10      11.2333
   1.56883e-10      10.8069
   1.76718e-10      10.4154
   1.99071e-10      10.0565
   2.25822e-10      9.71001
   2.56168e-10      9.39588
   2.92627e-10      9.09706
   3.34292e-10      8.82932
   3.84565e-10      8.57855
   4.45496e-10      8.34654
   5.19722e-10      8.13446
   6.10592e-10      7.94298
   7.27435e-10      7.76569
   8.78907e-10       7.6052
    1.07685e-9      7.46312
    1.34742e-9      7.33627
    1.73389e-9      7.22368
    2.31078e-9      7.12566
    3.23431e-9       7.0415
    4.82141e-9      6.97212
    7.92824e-9      6.91657
     1.5423e-8      6.87429
    2.52419e-8      6.85638
       2.53e-8      6.85631
    1.02695e-7      6.83015
    2.48735e-6      6.65668
    6.35895e-6      6.43309
    1.09818e-5      6.22194
    1.64861e-5      6.02412
    2.32366e-5      5.83427
    3.16247e-5      5.65017
    4.24421e-5      5.46423
    5.77632e-5      5.25379
    7.91696e-5      4.98219
    8.55089e-5      4.87786
    8.91793e-5      4.79405
    9.17134e-5      4.71103
    9.36634e-5      4.61566
     9.4659e-5      4.54613
    9.56284e-5      4.45338
    9.62583e-5      4.37135
    9.66892e-5      4.29972
    9.71202e-5      4.20952
    9.74517e-5      4.12209
    9.77832e-5      4.01203
    9.80194e-5      3.91427
    9.82556e-5      3.79394
     9.8413e-5      3.69689
    9.85788e-5      3.57528
    9.87031e-5      3.46717
    9.88274e-5      3.34035
    9.89517e-5      3.18949
    9.90346e-5      3.07196
    9.91092e-5      2.95186
    9.91755e-5      2.83163
    9.92418e-5      2.69692
    9.93081e-5      2.54717
    9.94241e-5      2.26772
    9.94552e-5      2.20233
    9.94759e-5       2.1666
    9.94966e-5      2.14065
    9.95174e-5      2.12844
    9.95225e-5      2.12809
    9.95381e-5      2.13497
    9.95536e-5      2.15585
    9.95692e-5      2.19385
    9.95795e-5      2.23045
    9.95899e-5      2.27743
    9.96002e-5      2.33609
    9.96106e-5       2.4078
     9.9621e-5      2.49408
    9.96313e-5      2.59651
    9.96417e-5      2.71683
     9.9652e-5      2.85683
    9.96624e-5      3.01842
    9.96728e-5       3.2036
    9.96821e-5      3.39215
    9.96914e-5      3.60305
    9.97007e-5      3.83791
      9.971e-5      4.09837
    9.97194e-5      4.38608
    9.97287e-5      4.70269
     9.9738e-5      5.04986
    9.97473e-5      5.42923
    9.97567e-5      5.84239
     9.9766e-5      6.29089
    9.97755e-5      6.78742
    9.97855e-5      7.34815
    9.97954e-5      7.95391
    9.98054e-5      8.60607
    9.98153e-5      9.30579
    9.98252e-5       10.054
    9.98377e-5      11.0585
    9.98501e-5      12.1405
    9.98617e-5      13.2202
    9.98716e-5      14.1987
    9.98849e-5       15.578
    9.98998e-5      17.2278
    9.99172e-5       19.275
    9.99355e-5      21.5459
    9.99578e-5      24.4781
    9.99993e-5       30.162
   0.000100036      35.2092
   0.000100063      38.6559
   0.000100082      41.0491
   0.000100101      43.0835
   0.000100118      44.7656
   0.000100134      46.1166
    0.00010015      47.2548
    0.00010017      48.3523
   0.000100187      48.9849
   0.000100202       49.329
   0.000100218      49.4387
   0.000100235      49.2817
   0.000100255       48.752
   0.000100275      47.8706
   0.000100297      46.5319
   0.000100312      45.3958
   0.000100334      43.5181
   0.000100356       41.404
   0.000100389      37.8926
   0.000100463      29.6262
   0.000100488      27.0195
   0.000100511      24.7328
   0.000100535      22.6147
   0.000100552       21.147
   0.000100569       19.787
    0.00010059      18.3519
   0.000100607      17.2502
   0.000100624      16.2475
   0.000100641      15.3396
   0.000100658      14.5211
   0.000100675      13.7861
   0.000100691      13.1283
   0.000100708       12.541
   0.000100727       11.964
   0.000100748      11.4105
   0.000100769      10.9308
   0.000100789      10.5148
    0.00010081      10.1533
   0.000100831      9.83829
   0.000100862      9.43758
   0.000100893      9.10571
   0.000100924      8.82709
   0.000100966      8.51823
   0.000101007      8.26258
   0.000101068      7.95423
   0.000101127       7.7114
   0.000101206      7.44613
   0.000101285      7.22889
   0.000101363       7.0469
   0.000101488      6.81203
   0.000101612       6.6239
   0.000101745      6.46018
   0.000101894      6.30938
   0.000102093      6.14795
   0.000102341      5.99061
    0.00010259      5.86733
   0.000102921      5.73899
   0.000103419      5.59677
   0.000103916      5.49258
   0.000104413      5.41255
   0.000105408      5.29664
   0.000106465      5.21125
   0.000107947      5.12691
   0.000110237      5.03809
   0.000113349      4.95541
   0.000119025      4.85011
   0.000131264      4.68207
   0.000152929       4.4004
    0.00016485      4.21702
     0.0001734      4.06008
   0.000180307      3.90966
   0.000186643       3.7462
   0.000191461      3.59908
   0.000195522      3.45493
   0.000198879      3.31842
    0.00020228      3.15976
    0.00020456      3.03908
    0.00020684      2.90463
    0.00020912      2.75381
    0.00021083      2.62802
    0.00021254      2.48953
   0.000214297      2.33193
   0.000215533      2.21062
    0.00021672      2.08455
    0.00021786      1.95397
   0.000219048      1.80704
   0.000219974      1.68394
     0.0002209      1.55275
   0.000221755       1.4241
    0.00022261      1.28789
   0.000223465      1.14397
    0.00022432     0.992485
   0.000225175     0.834055
   0.000226125     0.651704
   0.000227336     0.416434
   0.000227811     0.326634
    0.00022812     0.270275
   0.000228358     0.228514
   0.000228548     0.196369
    0.00022869     0.173141
   0.000228856     0.147155
   0.000228999     0.125976
   0.000229106     0.110839
   0.000229212    0.0964104
   0.000229302    0.0849749
   0.000229385    0.0748231
   0.000229459     0.066214
   0.000229533    0.0580623
   0.000229592    0.0518893
   0.000229652    0.0460425
   0.000229711     0.040538
   0.000229759     0.036392
     0.0002298    0.0329597
   0.000229836    0.0301679
   0.000229872    0.0275189
   0.000229907    0.0250168
   0.000229937    0.0230471
   0.000229973    0.0208253
   0.000230008    0.0187628
   0.000230041    0.0170159
   0.000230072    0.0154801
   0.000230093    0.0145293
   0.000230118    0.0134549
    0.00023014    0.0125813
   0.000230163    0.0117788
   0.000230185    0.0110485
   0.000230207    0.0103918
   0.000230222    0.0099955
   0.000230243   0.00949734
   0.000230263   0.00906629
   0.000230286   0.00868016
   0.000230305   0.00840994
   0.000230322    0.0082215
   0.000230338   0.00809154
   0.000230352   0.00800559
    0.00023037   0.00795292
   0.000230379   0.00794525
   0.000230399   0.00797836
   0.000230417   0.00807439
   0.000230436   0.00823431
   0.000230453   0.00843414
   0.000230468   0.00865137
   0.000230488     0.008995
   0.000230504   0.00934055
   0.000230519   0.00969887
   0.000230537    0.0101851
   0.000230551    0.0106378
   0.000230566    0.0111341
   0.000230584    0.0117881
   0.000230602    0.0125067
    0.00023062    0.0132908
   0.000230637    0.0141413
   0.000230657    0.0151388
   0.000230679    0.0163896
   0.000230701    0.0177491
   0.000230727    0.0194239
   0.000230753    0.0213554
    0.00023078     0.023453
   0.000230804    0.0254601
   0.000230827    0.0276038
   0.000230851    0.0298868
   0.000230882    0.0330991
   0.000230905    0.0355468
   0.000230934    0.0390132
   0.000230964    0.0427169
   0.000230994    0.0466632
   0.000231023    0.0508582
   0.000231053    0.0553077
   0.000231083    0.0600182
   0.000231112    0.0649956
   0.000231148    0.0713302
   0.000231184    0.0780702
   0.000231219    0.0852274
   0.000231255     0.092814
   0.000231291     0.100843
   0.000231338     0.112257
   0.000231386     0.124513
   0.000231433     0.137642
   0.000231475     0.149875
   0.000231519      0.16378
   0.000231564     0.178543
   0.000231608     0.194195
   0.000231653     0.210769
   0.000231712     0.234363
   0.000231772     0.259747
   0.000231831     0.287011
    0.00023189     0.316252
   0.000231956     0.350823
   0.000232009      0.38108
   0.000232063     0.413202
   0.000232116     0.447276
   0.000232187     0.495906
   0.000232247     0.539376
   0.000232309     0.588069
   0.000232371     0.640058
   0.000232434     0.695535
   0.000232496     0.754698
   0.000232558     0.817761
   0.000232621      0.88495
   0.000232683     0.956511
   0.000232745       1.0327
   0.000232808       1.1138
    0.00023287       1.2001
   0.000232941      1.30551
   0.000233012      1.41864
   0.000233084      1.54004
   0.000233155       1.6703
   0.000233226      1.81009
   0.000233297      1.96009
   0.000233369      2.12107
    0.00023344      2.29386
   0.000233511      2.47937
   0.000233582      2.67859
   0.000233657      2.90184
   0.000233737      3.16252
   0.000233817      3.44534
   0.000233897      3.75234
   0.000233977      4.08583
   0.000234058      4.44837
   0.000234138      4.84281
   0.000234218      5.27234
   0.000234298      5.74055
   0.000234378      6.25147
   0.000234458      6.80965
   0.000234533      7.37305
   0.000234604      7.96044
   0.000234675      8.59801
   0.000234746       9.2909
   0.000234818      10.0449
   0.000234889      10.8665
    0.00023496      11.7632
   0.000235031      12.7432
   0.000235102      13.8163
   0.000235174      14.9932
   0.000235245      16.2866
   0.000235295       17.269
   0.000235345       18.321
   0.000235395       19.449
   0.000235445      20.6598
   0.000235494      21.9612
   0.000235544      23.3617
   0.000235594       24.871
   0.000235644         26.5
   0.000235708      28.7901
   0.000235772      31.3283
   0.000235815      33.1754
   0.000235858      35.1603
   0.000235901      37.2964
   0.000235943      39.5988
   0.000235986      42.0847
   0.000236043      45.7182
   0.000236081       48.367
   0.000236119      51.2179
   0.000236157      54.2916
   0.000236195      57.6116
   0.000236233      61.2047
   0.000236271      65.1014
   0.000236307      69.0614
    0.00023634      73.0552
   0.000236373      77.3681
   0.000236406      82.0354
    0.00023644      87.0976
   0.000236473      92.6014
   0.000236506      98.6008
   0.000236539      105.158
    0.00023657      111.811
   0.000236599      118.494
   0.000236627      125.759
   0.000236656      133.678
   0.000236684      142.332
   0.000236713      151.813
   0.000236741      162.229
    0.00023677      173.702
   0.000236797       185.82
   0.000236823      198.571
   0.000236849      212.599
   0.000236875       228.06
   0.000236902      245.133
   0.000236928      264.015
   0.000236954      284.926
   0.000236973      302.087
   0.000236993      320.636
   0.000237015      343.616
   0.000237038      368.744
    0.00023706       396.22
   0.000237082      426.257
   0.000237105       459.08
   0.000237127      494.922
   0.000237149      534.026
   0.000237172      576.638
   0.000237192      617.889
   0.000237211      662.319
   0.000237231      710.102
   0.000237251      761.407
   0.000237271      816.395
   0.000237291      875.213
   0.000237311      937.994
    0.00023734      1034.78
   0.000237365       1129.2
   0.000237391      1230.65
   0.000237417      1339.15
   0.000237442      1454.57
   0.000237468      1576.71
   0.000237508      1779.14
   0.000237548      1994.87
   0.000237597      2275.92
   0.000237711      2941.01
   0.000237757      3192.08
   0.000237795      3384.87
   0.000237833       3557.1
   0.000237866      3685.37
   0.000237898      3791.88
    0.00023793      3871.18
   0.000237958      3922.71
   0.000237987      3953.75
   0.000238013      3963.79
   0.000238042      3954.16
    0.00023807      3923.69
   0.000238105      3858.39
   0.000238144      3754.04
   0.000238182      3618.78
   0.000238217      3476.15
   0.000238251      3316.04
     0.0002383       3061.5
    0.00023838      2618.55
   0.000238456      2195.06
   0.000238502      1953.34
    0.00023854      1763.34
   0.000238578      1585.81
   0.000238606       1461.6
   0.000238635      1345.38
   0.000238665      1228.65
   0.000238689      1145.31
   0.000238713       1067.5
   0.000238737      995.069
    0.00023876      927.837
   0.000238784      865.588
   0.000238808       808.08
   0.000238832      755.057
    0.00023886      697.887
   0.000238884      652.851
   0.000238908      611.572
   0.000238932      573.764
   0.000238957       539.15
   0.000238981      507.464
   0.000239005      478.456
   0.000239029      451.888
   0.000239054      427.538
    0.00023907      412.435
   0.000239102       384.69
    0.00023913      362.661
   0.000239159      342.664
   0.000239188       324.47
   0.000239216      307.878
   0.000239254      287.941
   0.000239292      270.171
    0.00023933      254.258
   0.000239368      239.945
   0.000239406      227.014
   0.000239454      212.519
   0.000239501      199.605
   0.000239548      188.037
   0.000239596      177.619
   0.000239643      168.194
   0.000239691      159.629
   0.000239738      151.817
   0.000239786      144.665
   0.000239848       136.23
   0.000239909       128.64
   0.000239971      121.779
   0.000240033      115.552
   0.000240095      109.877
   0.000240156      104.689
   0.000240249      97.6956
   0.000240327      92.4151
   0.000240422      86.6796
   0.000240518      81.5678
   0.000240612       76.988
   0.000240708      72.8653
   0.000240803      69.1379
   0.000240898      65.7542
   0.000240992       62.671
   0.000241099      59.5168
   0.000241218      56.3519
   0.000241337      53.4969
   0.000241456      50.9108
   0.000241574      48.5592
   0.000241752      45.4094
   0.000241931      42.6434
   0.000242109       40.198
   0.000242287      38.0232
   0.000242465      36.0783
   0.000242643      34.3305
   0.000242821      32.7528
   0.000243047      30.9638
   0.000243261      29.4533
   0.000243474      28.0948
   0.000243688      26.8671
   0.000244009      25.2341
   0.000244329      23.8112
    0.00024465      22.5618
   0.000245006      21.3421
   0.000245362      20.2701
   0.000245719      19.3211
   0.000246075      18.4759
    0.00024655      17.4837
   0.000246942      16.7622
   0.000247334      16.1146
   0.000247856      15.3484
   0.000248379      14.6762
   0.000248925      14.0551
   0.000249495      13.4811
   0.000250065      12.9713
    0.00025092      12.3057
   0.000251775      11.7365
    0.00025263      11.2443
   0.000253485      10.8147
    0.00025434      10.4366
    0.00025548      9.99763
    0.00025681       9.5613
    0.00025814      9.18941
    0.00025985      8.78423
    0.00026175      8.40895
    0.00026384       8.0646
    0.00026612      7.75094
     0.0002684      7.48656
    0.00027068       7.2602
    0.00027372      7.00378
   0.000276741      6.78841
   0.000281282      6.51852
   0.000285699      6.30061
   0.000290516      6.09823
   0.000296693      5.87547
     0.0003064      5.57185
   0.000317148      5.24543
    0.00032192       5.0783
    0.00032486      4.95656
   0.000327442      4.82816
   0.000329629      4.69348
   0.000331041       4.5864
   0.000332408      4.46003
   0.000333582      4.32501
   0.000334562      4.18458
   0.000335248      4.06494
   0.000335836      3.94326
   0.000336424      3.79793
   0.000336865      3.66851
   0.000337233      3.54332
     0.0003376      3.39812
   0.000337968      3.22749
   0.000338212      3.09599
   0.000338457      2.94695
    0.00033866      2.80818
   0.000338819      2.68696
   0.000338978      2.55364
   0.000339137      2.40647
   0.000339272      2.26967
   0.000339382      2.14849
   0.000339493      2.01834
   0.000339603      1.87895
   0.000339768      1.65454
   0.000339906      1.46436
   0.000339961      1.39458
   0.000340003      1.34852
   0.000340044      1.31121
   0.000340071      1.29329
   0.000340099      1.28282
   0.000340113      1.28101
   0.000340133      1.28339
   0.000340154       1.2929
   0.000340175      1.31086
   0.000340195      1.33875
   0.000340209      1.36371
   0.000340223      1.39442
   0.000340237       1.4315
   0.000340251      1.47563
   0.000340264      1.52754
   0.000340278      1.58803
   0.000340292      1.65796
   0.000340306      1.73828
    0.00034032      1.82998
   0.000340333      1.93416
   0.000340347      2.05197
   0.000340361      2.18467
   0.000340375      2.33361
   0.000340388      2.50022
   0.000340402      2.68601
   0.000340416      2.89261
    0.00034043      3.12175
   0.000340444      3.37527
   0.000340457      3.65507
   0.000340467      3.85719
   0.000340479      4.14738
   0.000340491       4.4626
   0.000340503      4.80447
   0.000340516      5.17466
   0.000340528      5.57492
    0.00034054      6.00703
   0.000340552      6.47285
   0.000340565       6.9743
   0.000340576      7.47853
   0.000340587      8.01742
   0.000340603      8.79288
   0.000340618      9.63708
    0.00034063      10.3648
   0.000340644       11.242
   0.000340658      12.1842
    0.00034067      13.0787
   0.000340685      14.2758
   0.000340698      15.3654
   0.000340715      16.8066
   0.000340728      18.1293
   0.000340747      20.0233
   0.000340759       21.372
   0.000340777      23.4354
   0.000340793      25.4517
    0.00034081      27.8094
   0.000340828      30.3271
   0.000340851      33.8576
   0.000340868      36.6268
   0.000340887      40.0433
    0.00034091      44.2546
    0.00034093      48.1215
   0.000340952       52.717
   0.000340981       59.236
   0.000341007      65.2882
   0.000341041      73.8192
   0.000341079      83.7928
   0.000341138       100.02
   0.000341226      124.847
   0.000341265      135.473
   0.000341301      144.765
   0.000341335      152.671
   0.000341365       159.22
   0.000341393      164.503
    0.00034143      170.583
   0.000341459      174.407
   0.000341489      177.306
   0.000341523      179.461
   0.000341557      180.259
   0.000341583      179.972
   0.000341608      178.941
    0.00034164      176.682
   0.000341667      173.849
   0.000341696      169.984
   0.000341734      163.991
   0.000341765      157.979
   0.000341804      149.717
   0.000341848      139.466
   0.000341922      121.049
   0.000342008      99.2675
   0.000342057      87.2625
   0.000342095       78.737
   0.000342132      70.7521
    0.00034216      65.1556
   0.000342184      60.6646
   0.000342213      55.5512
   0.000342242      50.8323
   0.000342271       46.505
   0.000342293      43.5112
   0.000342315      40.7271
   0.000342337      38.1456
   0.000342358      35.7591
    0.00034238      33.5586
   0.000342402       31.535
   0.000342425      29.5848
   0.000342448      27.8079
   0.000342471      26.1922
   0.000342494      24.7261
   0.000342517      23.3979
    0.00034254      22.1962
   0.000342563      21.1103
   0.000342586      20.1298
   0.000342609      19.2448
   0.000342632      18.4463
   0.000342656      17.6802
   0.000342684      16.9124
