#ZVView-data-copy:   6-Oct-2017 16:27:15
#=======================================
#
#name:   ENDF/B-VIII.b4: XE-128(N,G)XE-129
#X.axis: Incident Energy
#Y.axis: Cross Section
#wdata:  2
#ldata:  4900
#data...
#            X            Y
#          MeV        barns
         1e-11      261.522
   1.10304e-11      249.008
   1.21669e-11      237.092
   1.34206e-11      225.747
   1.48034e-11      214.945
   1.63287e-11       204.66
   1.80111e-11      194.866
   1.98669e-11      185.542
   2.19139e-11      176.664
   2.41719e-11       168.21
   2.66625e-11      160.161
   2.94097e-11      152.497
     3.244e-11        145.2
   3.57825e-11      138.252
   3.94694e-11      131.636
   4.35362e-11      125.338
   4.80221e-11       119.34
   5.29701e-11      113.629
    5.8428e-11      108.192
   6.44483e-11      103.015
   7.10888e-11      98.0856
   7.84136e-11      93.3921
   8.64931e-11      88.9231
   9.54051e-11       84.668
   1.05235e-10      80.6165
   1.16078e-10      76.7589
   1.28039e-10      73.0859
   1.41231e-10      69.5886
   1.55784e-10      66.2587
   1.71835e-10      63.0881
    1.8954e-10      60.0692
    2.0907e-10      57.1947
   2.30612e-10      54.4578
   2.54374e-10      51.8519
   2.80584e-10      49.3707
   3.09494e-10      47.0081
   3.41383e-10      44.7587
   3.76558e-10      42.6168
   4.15358e-10      40.5775
   4.58155e-10      38.6357
   5.05362e-10      36.7868
   5.57433e-10      35.0264
   6.14869e-10      33.3503
   6.78223e-10      31.7543
   7.48105e-10      30.2347
   8.25188e-10      28.7878
   9.10213e-10      27.4101
      1.004e-9      26.0984
    1.10745e-9      24.8494
    1.22155e-9      23.6601
    1.34742e-9      22.5278
    1.48625e-9      21.4496
    1.63939e-9       20.423
    1.80831e-9      19.4456
    1.99463e-9      18.5149
    2.20016e-9      17.6287
    2.42685e-9      16.7849
    2.67691e-9      15.9814
    2.95273e-9      15.2164
    3.25697e-9       14.488
    3.59256e-9      13.7945
    3.96272e-9      13.1341
    4.37103e-9      12.5054
    4.82141e-9      11.9067
    5.31819e-9      11.3368
    5.86616e-9      10.7943
    6.47059e-9      10.2779
     7.1373e-9      9.78621
    7.87271e-9       9.3181
    8.68389e-9      8.87223
    9.57865e-9      8.44742
    1.05656e-8      8.04267
    1.16543e-8      7.65713
    1.28551e-8      7.29011
    1.41796e-8      6.94079
    1.56406e-8      6.60833
    1.72522e-8      6.29171
    1.90298e-8      5.98998
    2.09906e-8      5.70247
    2.31534e-8      5.42868
    2.52419e-8      5.19849
       2.53e-8      5.19249
    2.79068e-8      4.94313
    3.07823e-8      4.70557
     3.3954e-8      4.47933
    3.74525e-8      4.26406
    4.13115e-8      4.05938
    4.55681e-8      3.86443
    5.02633e-8      3.67834
    5.54423e-8      3.50093
    6.11549e-8      3.33197
    6.74561e-8      3.17108
    7.44066e-8      3.01793
    8.20732e-8      2.87245
    9.05297e-8       2.7339
    9.98577e-8      2.60139
    1.10147e-7      2.47508
    1.21496e-7      2.35478
    1.34014e-7      2.24018
    1.47823e-7      2.13109
    1.63054e-7      2.02772
    1.79855e-7      1.92862
    1.98386e-7      1.83398
    2.18827e-7       1.7438
    2.41375e-7      1.65785
    2.66245e-7      1.57593
    2.93678e-7      1.49783
    3.21685e-7      1.42881
    3.57316e-7      1.35284
    3.94132e-7      1.28498
    4.34743e-7      1.22026
    4.79537e-7      1.15849
    5.28947e-7      1.09954
    5.83448e-7      1.04327
    6.43565e-7     0.989551
    7.04938e-7     0.942204
    7.72126e-7     0.896432
     8.4576e-7     0.852532
    9.26369e-7     0.810435
    1.02182e-6     0.766987
     1.1271e-6     0.725516
    1.24324e-6     0.685824
     1.3618e-6     0.650654
    1.50211e-6     0.614237
    1.64528e-6     0.581799
    1.78956e-6     0.552983
    1.94649e-6     0.525207
    2.13211e-6     0.496164
    2.33533e-6     0.468405
    2.55803e-6      0.44164
    2.80184e-6     0.415974
    3.02634e-6     0.395293
    3.26867e-6     0.374994
    3.53057e-6     0.355414
    3.81327e-6     0.336542
    4.08996e-6     0.319934
    4.38673e-6     0.303852
    4.73822e-6     0.286702
    5.15372e-6     0.268774
    5.56639e-6     0.252912
     6.0124e-6     0.237693
    6.49383e-6     0.223039
    6.96502e-6     0.210247
     7.5231e-6     0.196687
    8.06897e-6     0.184839
    8.59383e-6     0.174563
    9.15328e-6     0.164665
    9.74868e-6     0.155146
    1.03106e-5     0.146977
    1.09049e-5     0.139091
    1.16148e-5      0.13053
    1.23703e-5     0.122388
    1.30833e-5     0.115425
     1.3935e-5     0.107922
    1.47382e-5     0.101544
    1.55876e-5    0.0954544
    1.64861e-5    0.0896153
    1.73142e-5    0.0848002
    1.81848e-5    0.0800855
    1.92329e-5    0.0749756
    2.03414e-5    0.0701295
    2.13632e-5     0.066087
    2.24374e-5    0.0622354
    2.35644e-5    0.0585763
    2.45759e-5    0.0555748
    2.58116e-5    0.0522486
    2.69195e-5    0.0495311
     2.8075e-5    0.0469383
    2.92802e-5    0.0444656
    3.07509e-5    0.0417262
    3.22971e-5    0.0391636
    3.39194e-5      0.03674
    3.56249e-5     0.034473
    3.74143e-5    0.0323559
    3.90203e-5    0.0306466
    4.06952e-5    0.0290408
    4.24421e-5    0.0275356
    4.42639e-5    0.0261278
    4.58428e-5    0.0250221
    4.78105e-5    0.0237873
    4.95135e-5     0.022827
    5.12797e-5    0.0219298
    5.34808e-5    0.0209356
    5.57765e-5    0.0200418
    5.77632e-5    0.0193745
    6.02426e-5    0.0186624
    6.23915e-5    0.0181618
    6.46138e-5    0.0177517
    6.69186e-5     0.017437
    6.88201e-5    0.0172807
    7.07483e-5    0.0172206
    7.12168e-5    0.0172172
     7.2731e-5    0.0172746
    7.42737e-5    0.0174104
    7.58529e-5     0.017664
    7.69231e-5    0.0179047
    7.80083e-5    0.0182208
    7.91089e-5    0.0186283
     7.9663e-5    0.0188725
    8.10719e-5    0.0196271
    8.19267e-5    0.0202004
    8.27936e-5     0.020892
    8.36686e-5     0.021722
    8.45518e-5    0.0227304
    8.51462e-5    0.0235293
    8.57447e-5    0.0244312
    8.63474e-5    0.0254774
    8.69544e-5    0.0266788
      8.726e-5    0.0273557
    8.78713e-5    0.0288755
    8.83361e-5    0.0301919
     8.8801e-5    0.0316848
    8.92681e-5    0.0333846
    8.97396e-5    0.0353318
     9.0211e-5    0.0375728
    9.05275e-5    0.0392709
    9.08463e-5    0.0411609
     9.1165e-5    0.0432569
    9.14837e-5    0.0455899
    9.18047e-5    0.0482118
    9.21279e-5    0.0511787
    9.23704e-5    0.0536603
    9.26128e-5    0.0563865
    9.28552e-5    0.0593834
    9.30999e-5    0.0627265
    9.33457e-5    0.0664564
    9.35916e-5    0.0706031
    9.38374e-5    0.0752354
    9.40833e-5    0.0804541
    9.43273e-5    0.0863071
    9.44875e-5    0.0905692
    9.46477e-5    0.0952088
     9.4808e-5     0.100272
    9.49682e-5     0.105813
    9.51284e-5     0.111892
    9.52887e-5     0.118582
    9.54489e-5     0.125969
     9.5587e-5     0.132972
     9.5761e-5     0.142753
    9.58771e-5     0.149947
    9.59931e-5      0.15775
    9.61091e-5     0.166235
    9.62252e-5     0.175486
    9.63412e-5     0.185602
    9.64572e-5     0.196691
    9.65939e-5     0.211184
    9.67307e-5     0.227454
    9.68219e-5     0.239436
     9.6913e-5      0.25245
    9.70042e-5     0.266623
    9.70953e-5     0.282096
    9.71865e-5     0.299035
    9.72984e-5     0.322112
     9.7373e-5     0.339089
    9.74476e-5     0.357509
    9.75221e-5     0.377543
    9.75967e-5     0.399384
    9.76713e-5      0.42326
    9.77459e-5     0.449433
    9.78122e-5     0.474874
    9.78992e-5     0.511811
    9.79572e-5     0.538972
    9.80153e-5     0.568431
    9.80733e-5     0.600456
    9.81313e-5     0.635357
    9.81893e-5     0.673493
    9.82473e-5     0.715282
    9.83157e-5     0.769897
    9.83613e-5     0.809977
    9.84068e-5     0.853378
    9.84524e-5     0.900488
     9.8498e-5     0.951751
    9.85436e-5      1.00768
    9.85892e-5      1.06888
    9.86306e-5      1.12966
    9.86679e-5      1.18909
    9.87052e-5      1.25351
    9.87425e-5      1.32352
    9.87798e-5      1.39981
    9.88171e-5      1.48317
    9.88544e-5      1.57454
    9.88917e-5      1.67502
    9.89269e-5      1.77946
      9.896e-5      1.88742
    9.89932e-5      2.00608
    9.90263e-5        2.137
    9.90595e-5      2.28206
    9.90926e-5      2.44359
    9.91175e-5      2.57726
    9.91424e-5      2.72331
    9.91672e-5      2.88356
    9.91879e-5      3.02958
    9.92128e-5      3.22216
    9.92377e-5      3.43697
    9.92563e-5      3.61531
    9.92749e-5      3.81098
    9.92936e-5       4.0269
    9.93122e-5      4.26664
    9.93309e-5      4.53464
    9.93495e-5       4.8364
    9.93682e-5      5.17877
    9.93837e-5      5.50117
    9.93977e-5      5.82539
    9.94117e-5      6.18719
    9.94257e-5      6.59261
    9.94397e-5      7.04868
    9.94537e-5       7.5636
     9.9463e-5      7.94418
    9.94723e-5      8.35827
    9.94816e-5      8.80932
    9.94909e-5      9.30115
    9.95003e-5      9.83789
    9.95096e-5      10.4241
    9.95189e-5      11.0647
    9.95277e-5      11.7245
     9.9536e-5      12.3985
    9.95443e-5      13.1284
    9.95526e-5      13.9187
    9.95609e-5      14.7746
    9.95692e-5      15.7011
    9.95774e-5       16.704
    9.95857e-5       17.789
     9.9594e-5      18.9624
    9.96023e-5      20.2308
    9.96106e-5      21.6008
    9.96189e-5      23.0798
    9.96272e-5       24.675
    9.96355e-5      26.3943
    9.96437e-5      28.2455
     9.9652e-5      30.2369
    9.96626e-5      32.9924
    9.96722e-5      35.7303
    9.96819e-5      38.6973
    9.96915e-5      41.9074
    9.97011e-5      45.3744
    9.97108e-5      49.1119
    9.97204e-5      53.1335
      9.973e-5      57.4523
    9.97397e-5      62.0807
    9.97493e-5      67.0305
    9.97589e-5      72.3127
    9.97689e-5      78.1242
    9.97788e-5      84.3095
    9.97888e-5      90.8762
    9.97987e-5      97.8299
    9.98136e-5      108.993
    9.98286e-5      121.035
    9.98385e-5      129.545
    9.98526e-5      142.246
    9.98667e-5       155.67
    9.98878e-5      177.058
    9.99123e-5      203.401
    9.99421e-5      237.205
    9.99993e-5       302.97
   0.000100027      332.499
   0.000100051      356.105
   0.000100071       373.38
    0.00010009       388.15
    0.00010011      400.041
    0.00010013      408.743
   0.000100149      413.846
   0.000100168      415.739
    0.00010017      415.749
   0.000100186      414.578
   0.000100202      411.022
   0.000100218      405.288
   0.000100235      396.678
   0.000100255      383.866
   0.000100271      371.064
   0.000100289      355.341
   0.000100312      332.872
   0.000100338      305.446
   0.000100385      251.756
   0.000100417      214.747
   0.000100439      190.096
   0.000100462      166.714
   0.000100478      150.398
   0.000100495      135.043
   0.000100507      124.196
    0.00010052      113.945
   0.000100533        103.6
   0.000100543      96.2115
   0.000100553      89.2271
   0.000100564      82.6426
   0.000100574      76.4508
   0.000100584      70.6444
   0.000100594      65.2125
   0.000100604      60.1432
   0.000100616      54.6848
   0.000100626      50.3747
   0.000100636        46.38
   0.000100646      42.6845
   0.000100656      39.2734
   0.000100666      36.1304
   0.000100677      33.2399
   0.000100687      30.5858
   0.000100697      28.1534
   0.000100707      25.9272
   0.000100717      23.8927
   0.000100725      22.3565
   0.000100734      20.9325
   0.000100742      19.6132
    0.00010075       18.392
   0.000100758       17.262
   0.000100767      16.2171
   0.000100775       15.251
   0.000100783      14.3584
   0.000100792      13.5337
     0.0001008      12.7719
   0.000100808      12.0681
   0.000100816      11.4181
   0.000100825      10.8174
   0.000100833      10.2623
   0.000100841       9.7491
    0.00010085      9.27447
    0.00010086      8.73053
    0.00010087      8.23631
   0.000100881      7.78661
   0.000100891      7.37693
   0.000100901      7.00301
   0.000100912       6.6612
   0.000100922       6.3481
   0.000100938      5.92582
   0.000100953      5.55265
   0.000100969      5.22117
   0.000100984      4.92518
      0.000101      4.65944
   0.000101015       4.4196
   0.000101036      4.14057
   0.000101056       3.8927
   0.000101076      3.67078
   0.000101096      3.47073
   0.000101116      3.28926
   0.000101137      3.12374
   0.000101163      2.92421
    0.00010119      2.74527
   0.000101217      2.58377
   0.000101247      2.42121
   0.000101281       2.2602
   0.000101314      2.11566
   0.000101347      1.98526
    0.00010138       1.8671
   0.000101413      1.75963
   0.000101446      1.66153
   0.000101479      1.57171
   0.000101517      1.47939
   0.000101558      1.38634
     0.0001016      1.30206
   0.000101641      1.22545
   0.000101682       1.1556
   0.000101724      1.09171
   0.000101765      1.03311
   0.000101807     0.979226
   0.000101852     0.924804
   0.000101902     0.870576
   0.000101952     0.821092
   0.000102002     0.775807
   0.000102051     0.734249
   0.000102101     0.696015
   0.000102151     0.660752
   0.000102225     0.612777
   0.000102292     0.574473
   0.000102358     0.539724
   0.000102424     0.508101
    0.00010249     0.479239
   0.000102557     0.452824
   0.000102623     0.428587
   0.000102689     0.406294
   0.000102756      0.38574
   0.000102839     0.362227
   0.000102921     0.340858
   0.000103004      0.32138
   0.000103087     0.303575
    0.00010317     0.287257
   0.000103253     0.272266
   0.000103336     0.258461
   0.000103419      0.24572
   0.000103526     0.230572
   0.000103634     0.216837
   0.000103742     0.204342
    0.00010385     0.192942
   0.000103957     0.182513
   0.000104065     0.172951
   0.000104173     0.164162
   0.000104281     0.156066
   0.000104413     0.146945
   0.000104546     0.138648
   0.000104678     0.131077
   0.000104811     0.124152
   0.000104944     0.117801
   0.000105076     0.111964
   0.000105275     0.104055
   0.000105424    0.0987085
    0.00010559    0.0932832
   0.000105756    0.0883381
   0.000105922    0.0838181
   0.000106087     0.079676
   0.000106253    0.0758708
   0.000106502    0.0707185
   0.000106761    0.0659547
    0.00010695    0.0628503
   0.000107232    0.0586514
   0.000107514    0.0549228
   0.000107796    0.0516013
   0.000108078    0.0486305
   0.000108362     0.045944
   0.000108648    0.0435151
   0.000108933    0.0413239
   0.000109218    0.0393435
   0.000109504    0.0375477
   0.000109887    0.0353718
   0.000110274    0.0334234
   0.000110661    0.0316882
   0.000111048     0.030136
   0.000111432    0.0287533
   0.000111814    0.0275154
   0.000112386    0.0258741
   0.000112966    0.0244321
   0.000113562    0.0231513
   0.000114159    0.0220273
   0.000114761    0.0210273
   0.000115366    0.0201448
   0.000115971    0.0193658
   0.000116789    0.0184494
   0.000117607     0.017668
   0.000118437    0.0169806
   0.000119267    0.0163853
   0.000120108    0.0158608
   0.000120949     0.015408
   0.000121803    0.0150002
   0.000123088    0.0144835
   0.000124386    0.0140561
   0.000125702    0.0137007
   0.000127031    0.0134068
   0.000128823    0.0130935
    0.00013064    0.0128604
   0.000132484    0.0126927
   0.000134353    0.0125792
   0.000137621    0.0124955
    0.00013804    0.0124938
   0.000140962    0.0125453
   0.000142937    0.0126222
   0.000144954    0.0127333
   0.000148029    0.0129807
   0.000150987    0.0132931
      0.000154    0.0136872
   0.000156173     0.014019
    0.00015929    0.0145805
      0.000162    0.0151476
    0.00016485    0.0158415
     0.0001677    0.0166346
     0.0001696    0.0172317
     0.0001715    0.0178879
     0.0001734    0.0186094
     0.0001753    0.0194037
     0.0001772    0.0202794
   0.000179271    0.0213381
   0.000181342    0.0225203
   0.000183413    0.0238444
   0.000185484    0.0253299
   0.000187222    0.0267245
   0.000188961    0.0282693
    0.00019012    0.0293979
   0.000191461    0.0308121
   0.000192802    0.0323554
   0.000194162    0.0340693
   0.000195522    0.0359483
    0.00019664    0.0376227
   0.000197758    0.0394389
   0.000199439    0.0424749
    0.00020057    0.0447528
    0.00020171    0.0472697
    0.00020285    0.0500338
    0.00020399    0.0530787
    0.00020513    0.0564433
    0.00020627    0.0601747
    0.00020741    0.0643274
    0.00020855    0.0689683
   0.000209405    0.0728169
    0.00021026    0.0770238
   0.000211115    0.0816349
    0.00021197    0.0867039
   0.000212825    0.0922944
    0.00021368    0.0984812
   0.000214606     0.105942
   0.000215224     0.111432
   0.000215841     0.117389
   0.000216435     0.123603
   0.000217005     0.130068
   0.000217575     0.137079
   0.000218145     0.144699
   0.000218739     0.153356
   0.000219356     0.163223
   0.000219974     0.174141
   0.000220591     0.186239
   0.000221185     0.199146
   0.000221755     0.212885
   0.000222325     0.228143
   0.000222895     0.245154
   0.000223322      0.25923
    0.00022375     0.274587
   0.000224178     0.291387
   0.000224605     0.309816
   0.000225033     0.330094
    0.00022546     0.352476
   0.000225888     0.377266
   0.000226315     0.404823
   0.000226742     0.435574
    0.00022717      0.47003
   0.000227455     0.495331
    0.00022774     0.522712
   0.000228096     0.560323
   0.000228452     0.602283
    0.00022872     0.636975
   0.000228987     0.674802
   0.000229307     0.724896
   0.000229592     0.774334
   0.000229866     0.826685
   0.000230151     0.887261
    0.00023043     0.953535
   0.000230664      1.01485
   0.000230851       1.0683
   0.000231089      1.14257
   0.000231326      1.22495
   0.000231528      1.30226
    0.00023173       1.3872
   0.000231908      1.46931
   0.000232086      1.55901
   0.000232264      1.65726
   0.000232443      1.76519
   0.000232621      1.88413
   0.000232799      2.01562
   0.000232977      2.16151
   0.000233155      2.32398
   0.000233333      2.50568
   0.000233452      2.63902
   0.000233571      2.78341
   0.000233689      2.94009
   0.000233808      3.11052
   0.000233927      3.29635
   0.000234046      3.49953
   0.000234164      3.72229
   0.000234283      3.96725
   0.000234402      4.23749
   0.000234521      4.53664
   0.000234639      4.86901
   0.000234728      5.14316
   0.000234818      5.44143
   0.000234907      5.76678
   0.000234996       6.1226
   0.000235085      6.51289
   0.000235174       6.9423
   0.000235263      7.41631
   0.000235352       7.9414
   0.000235441      8.52533
    0.00023553      9.17737
   0.000235608       9.8164
   0.000235687      10.5261
   0.000235765      11.3175
   0.000235844       12.204
   0.000235896      12.8558
   0.000235948      13.5627
   0.000236019      14.6278
   0.000236067      15.4115
   0.000236114      16.2621
   0.000236162      17.1879
   0.000236209      18.1984
   0.000236257      19.3046
   0.000236304      20.5199
   0.000236349      21.7895
   0.000236392      23.1104
   0.000236435      24.5626
   0.000236478      26.1652
    0.00023652      27.9414
   0.000236563      29.9188
   0.000236595      31.5539
   0.000236627      33.3378
   0.000236659      35.2901
   0.000236687      37.1029
    0.00023672      39.5205
   0.000236753      42.2014
   0.000236786       45.185
    0.00023682      48.5175
   0.000236845      51.2777
    0.00023687      54.2897
   0.000236894      57.5823
   0.000236919      61.1869
   0.000236949       65.894
   0.000236974      70.4379
      0.000237      75.4443
   0.000237026      80.9635
   0.000237051      87.0501
   0.000237077      93.7625
   0.000237103      101.162
   0.000237128      109.314
   0.000237151      117.245
   0.000237171      124.753
   0.000237191      132.825
   0.000237211      141.492
   0.000237231      150.786
   0.000237251      160.736
   0.000237271      171.369
   0.000237291      182.712
    0.00023732      200.494
